,sweep,permcount,dH,pdeconfined,pconfined,action,wilson,acceptance,nmat,ndec,ntime,ntau,udtau,adtau,temperature,pdec,pdec_var,pcon,pcoeff,utau,atau,mdtu,freq
0,1.0,0.0,-0.04319229467728292,0.395721313820306,0.00408355907267144,36.0164840909813,0.06955957813884488,1.0,16,8,24,400,0.0025,0.001,0.29,0.4,0.005,0.005,10000000.0,1.0,0.4,1.0,
1,2.0,0.0,0.02082041493486031,0.399038020698744,0.002964678893209553,35.8619201035281,0.06033156999804612,1.0,16,8,24,400,0.0025,0.001,0.29,0.4,0.005,0.005,10000000.0,1.0,0.4,2.0,1.0
2,3.0,0.0,-0.06334993095151731,0.39691850909275,0.005145103645012805,35.4446234598669,0.07981298683162096,1.0,16,8,24,400,0.0025,0.001,0.29,0.4,0.005,0.005,10000000.0,1.0,0.4,3.0,1.0
3,4.0,0.0,0.716427280887729,0.4051685083498,0.004966907618467212,35.3756220597439,0.07055852506683014,1.0,16,8,24,400,0.0025,0.001,0.29,0.4,0.005,0.005,10000000.0,1.0,0.4,4.0,1.0
4,5.0,0.0,-0.02114660584993544,0.394793202557011,0.003480893489326991,35.3156524308883,0.09008231791317299,1.0,16,8,24,400,0.0025,0.001,0.29,0.4,0.005,0.005,10000000.0,1.0,0.4,5.0,1.0
5,6.0,0.0,0.841455039444554,0.394793202557011,0.003480893489326991,35.3156524308883,0.09008231791317299,0.833333333333333,16,8,24,400,0.0025,0.001,0.29,0.4,0.005,0.005,10000000.0,1.0,0.4,6.0,1.0
6,7.0,0.0,0.04558775589975994,0.4004519134875,0.00484268018709993,36.0400443439012,0.07112378851487068,0.857142857142857,16,8,24,400,0.0025,0.001,0.29,0.4,0.005,0.005,10000000.0,1.0,0.4,7.0,1.0
7,8.0,0.0,-0.02509883106904454,0.400634562089431,0.005197253949951433,35.7935213687887,0.08065860495090937,0.875,16,8,24,400,0.0025,0.001,0.29,0.4,0.005,0.005,10000000.0,1.0,0.4,8.0,1.0
8,9.0,0.0,0.156631079757062,0.396740293444243,0.003875682313715634,35.9485144087502,0.07695519026558334,0.888888888888889,16,8,24,400,0.0025,0.001,0.29,0.4,0.005,0.005,10000000.0,1.0,0.4,9.0,1.0
9,10.0,0.0,-0.0602546651934972,0.399723079323344,0.003098754763802732,36.0105988207163,0.06690001487504535,0.9,16,8,24,400,0.0025,0.001,0.29,0.4,0.005,0.005,10000000.0,1.0,0.4,10.0,1.0
10,10.0,0.0,0.07469840363046387,0.396447222570532,0.004279088230267623,36.2361835510802,0.05313065842352295,1.0,16,8,24,400,0.0025,0.001,0.29,0.4,0.005,0.005,10000000.0,1.0,0.4,10.0,
11,20.0,0.0,0.09027836779932841,0.401096756452645,0.002783301038725842,35.3521171646821,0.06194035346464063,1.0,16,8,24,400,0.0025,0.001,0.29,0.4,0.005,0.005,10000000.0,1.0,0.4,20.0,10.0
12,30.0,0.0,7.485364403692074e-05,0.394942287949884,0.003469705980662218,35.6135449504992,0.05782304673425504,0.966666666666667,16,8,24,400,0.0025,0.001,0.29,0.4,0.005,0.005,10000000.0,1.0,0.4,30.0,10.0
13,40.0,0.0,-0.461772768405353,0.403591643892878,0.00262160677132863,35.3702930501017,0.0573507977945219,0.975,16,8,24,400,0.0025,0.001,0.29,0.4,0.005,0.005,10000000.0,1.0,0.4,40.0,10.0
14,50.0,0.0,-0.06281438513542525,0.402295129585783,0.005328655679190278,35.2837782134187,0.05237887482010647,0.92,16,8,24,400,0.0025,0.001,0.29,0.4,0.005,0.005,10000000.0,1.0,0.4,50.0,10.0
15,60.0,0.0,-0.140967743362125,0.40170403967434,0.005223681878773248,35.867002439134,0.05269190515767611,0.883333333333333,16,8,24,400,0.0025,0.001,0.29,0.4,0.005,0.005,10000000.0,1.0,0.4,60.0,10.0
16,70.0,0.0,0.24264109284195,0.399761197692765,0.003242535351303612,35.2292624965389,0.04510685661119748,0.9,16,8,24,400,0.0025,0.001,0.29,0.4,0.005,0.005,10000000.0,1.0,0.4,70.0,10.0
17,80.0,0.0,2.7853764167121,0.401112860601271,0.00521839546840871,35.615262688912,0.05785098039468815,0.8875,16,8,24,400,0.0025,0.001,0.29,0.4,0.005,0.005,10000000.0,1.0,0.4,80.0,10.0
18,90.0,0.0,-0.305314704404736,0.399998069280945,0.001842675303083296,35.3468912889934,0.05442886225455133,0.866666666666667,16,8,24,400,0.0025,0.001,0.29,0.4,0.005,0.005,10000000.0,1.0,0.4,90.0,10.0
19,100.0,0.0,0.400411837588763,0.399753953067557,0.002109984294281643,35.5931132703942,0.04887382412657192,0.86,16,8,24,400,0.0025,0.001,0.29,0.4,0.005,0.005,10000000.0,1.0,0.4,100.0,10.0
20,10.0,0.0,0.01367304356608656,0.394919343529076,0.003491989811115517,35.0530991436677,0.06201691583881666,1.0,16,8,24,400,0.0025,0.001,0.29,0.4,0.005,0.005,10000000.0,1.0,0.4,10.0,
21,20.0,0.0,0.06199969505541958,0.402967450119839,0.004818743264357194,35.6342374820749,0.06557164012616269,0.85,16,8,24,400,0.0025,0.001,0.29,0.4,0.005,0.005,10000000.0,1.0,0.4,20.0,10.0
22,30.0,0.0,0.336887226098042,0.397571422237795,0.00228205935600447,35.4177161347752,0.06855640189545788,0.9,16,8,24,400,0.0025,0.001,0.29,0.4,0.005,0.005,10000000.0,1.0,0.4,30.0,10.0
23,40.0,0.0,-1.86902137362995,0.40088111943805,0.001205452014670317,35.8171670299261,0.04591399083353758,0.925,16,8,24,400,0.0025,0.001,0.29,0.4,0.005,0.005,10000000.0,1.0,0.4,40.0,10.0
24,50.0,0.0,0.06119746781041613,0.404755407350778,0.004223004239060513,35.6481988063815,0.0702940863242528,0.92,16,8,24,400,0.0025,0.001,0.29,0.4,0.005,0.005,10000000.0,1.0,0.4,50.0,10.0
25,60.0,0.0,0.516466395511088,0.399258340514544,0.004645397465889944,35.3556564704233,0.05203346409496019,0.866666666666667,16,8,24,400,0.0025,0.001,0.29,0.4,0.005,0.005,10000000.0,1.0,0.4,60.0,10.0
26,70.0,0.0,-0.09834882961877156,0.402256657468448,0.002921812829488011,36.2817817684076,0.05343780221491595,0.885714285714286,16,8,24,400,0.0025,0.001,0.29,0.4,0.005,0.005,10000000.0,1.0,0.4,70.0,10.0
27,80.0,0.0,0.135168831715418,0.401765562843292,0.002015061470759713,36.3782856448378,0.101268841997555,0.875,16,8,24,400,0.0025,0.001,0.29,0.4,0.005,0.005,10000000.0,1.0,0.4,80.0,10.0
28,90.0,0.0,0.02761374033798347,0.403951346438739,0.004951978221930765,35.825669109948,0.07000274697964987,0.877777777777778,16,8,24,400,0.0025,0.001,0.29,0.4,0.005,0.005,10000000.0,1.0,0.4,90.0,10.0
29,100.0,0.0,-0.37293468165808,0.405165391903091,0.003120711398171002,36.2769174005762,0.07938969841799687,0.87,16,8,24,400,0.0025,0.001,0.29,0.4,0.005,0.005,10000000.0,1.0,0.4,100.0,10.0
30,110.0,0.0,-0.161820543551585,0.397741844461781,0.004670627544834093,36.0512775407927,0.05965891920191457,0.881818181818182,16,8,24,400,0.0025,0.001,0.29,0.4,0.005,0.005,10000000.0,1.0,0.4,110.0,10.0
31,120.0,0.0,0.06286502407601802,0.402662057704122,0.003205499772167629,36.0248188534181,0.05901348272645611,0.866666666666667,16,8,24,400,0.0025,0.001,0.29,0.4,0.005,0.005,10000000.0,1.0,0.4,120.0,10.0
32,130.0,0.0,0.825932711668429,0.398166587381599,0.004337692464407849,36.1906374858719,0.05620324835246462,0.869230769230769,16,8,24,400,0.0025,0.001,0.29,0.4,0.005,0.005,10000000.0,1.0,0.4,130.0,10.0
33,140.0,0.0,-0.650654526238213,0.404411797810233,0.003269780958694205,36.0521134911217,0.09466189109758721,0.871428571428571,16,8,24,400,0.0025,0.001,0.29,0.4,0.005,0.005,10000000.0,1.0,0.4,140.0,10.0
34,150.0,0.0,0.192260699124745,0.396218857909766,0.003514416705677472,35.4605771326285,0.09393002424532829,0.866666666666667,16,8,24,400,0.0025,0.001,0.29,0.4,0.005,0.005,10000000.0,1.0,0.4,150.0,10.0
35,160.0,0.0,-0.06524947252546553,0.399070287541027,0.004884725706039561,36.0314968467751,0.09661761355427877,0.86875,16,8,24,400,0.0025,0.001,0.29,0.4,0.005,0.005,10000000.0,1.0,0.4,160.0,10.0
36,170.0,0.0,0.04427420642605284,0.397507910580709,0.003951352366095212,35.6397246904874,0.06667774424087985,0.864705882352941,16,8,24,400,0.0025,0.001,0.29,0.4,0.005,0.005,10000000.0,1.0,0.4,170.0,10.0
37,180.0,0.0,-0.03523018463965855,0.404761191403237,0.002579065854738797,36.1013641918801,0.09607907077027909,0.872222222222222,16,8,24,400,0.0025,0.001,0.29,0.4,0.005,0.005,10000000.0,1.0,0.4,180.0,10.0
38,190.0,0.0,5.69348774885657,0.396047600893538,0.000491622422312504,35.977209096263,0.04711533773434784,0.852631578947368,16,8,24,400,0.0025,0.001,0.29,0.4,0.005,0.005,10000000.0,1.0,0.4,190.0,10.0
39,200.0,0.0,0.280943204506912,0.394776662185331,0.004197255972481931,36.0254101061148,0.06252636411637498,0.855,16,8,24,400,0.0025,0.001,0.29,0.4,0.005,0.005,10000000.0,1.0,0.4,200.0,10.0
40,210.0,0.0,-0.676386373059358,0.397395392200694,0.0008267782888002487,36.0710489374061,0.06065119543825667,0.847619047619048,16,8,24,400,0.0025,0.001,0.29,0.4,0.005,0.005,10000000.0,1.0,0.4,210.0,10.0
41,220.0,0.0,0.01086177522665821,0.398277442958573,0.004995981248576436,36.0212680881407,0.07091368866530251,0.85,16,8,24,400,0.0025,0.001,0.29,0.4,0.005,0.005,10000000.0,1.0,0.4,220.0,10.0
42,230.0,0.0,-0.179050992905104,0.404107713396084,0.002906490086340621,36.2032973329059,0.09649482509341409,0.856521739130435,16,8,24,400,0.0025,0.001,0.29,0.4,0.005,0.005,10000000.0,1.0,0.4,230.0,10.0
43,240.0,0.0,0.07878623012220487,0.3969380714931,0.003434850339947783,36.2292295104662,0.05633269187822323,0.8625,16,8,24,400,0.0025,0.001,0.29,0.4,0.005,0.005,10000000.0,1.0,0.4,240.0,10.0
44,250.0,0.0,-0.278628121814108,0.395184531960124,0.002446631140697376,34.6877677337961,0.04179589218980986,0.868,16,8,24,400,0.0025,0.001,0.29,0.4,0.005,0.005,10000000.0,1.0,0.4,250.0,10.0
45,260.0,0.0,-0.05074033085111296,0.403549744288946,0.005083077324259974,35.5089067870819,0.06256049204109666,0.869230769230769,16,8,24,400,0.0025,0.001,0.29,0.4,0.005,0.005,10000000.0,1.0,0.4,260.0,10.0
46,270.0,0.0,0.122451849765639,0.396273551721992,0.004746794950734497,35.4851674639091,0.07718544833425,0.874074074074074,16,8,24,400,0.0025,0.001,0.29,0.4,0.005,0.005,10000000.0,1.0,0.4,270.0,10.0
47,280.0,0.0,0.171152227743733,0.398577170767634,0.004105599675004194,35.766687830901,0.07059196494211514,0.875,16,8,24,400,0.0025,0.001,0.29,0.4,0.005,0.005,10000000.0,1.0,0.4,280.0,10.0
48,290.0,0.0,3.27201553615669,0.398133590363855,0.004214246296504041,36.6199520120969,0.06392752077037703,0.872413793103448,16,8,24,400,0.0025,0.001,0.29,0.4,0.005,0.005,10000000.0,1.0,0.4,290.0,10.0
49,300.0,0.0,0.219634292188857,0.401815540297947,0.005284887888865161,36.1403627177021,0.06301445780403246,0.876666666666667,16,8,24,400,0.0025,0.001,0.29,0.4,0.005,0.005,10000000.0,1.0,0.4,300.0,10.0
50,310.0,0.0,0.07909698575167567,0.395193975295468,0.004069352385967433,35.8629420548801,0.09784356837329461,0.87741935483871,16,8,24,400,0.0025,0.001,0.29,0.4,0.005,0.005,10000000.0,1.0,0.4,310.0,10.0
51,320.0,0.0,-0.01151308539556339,0.400273263119217,0.002940284978135704,36.6014243630535,0.05090920448191753,0.88125,16,8,24,400,0.0025,0.001,0.29,0.4,0.005,0.005,10000000.0,1.0,0.4,320.0,10.0
52,330.0,0.0,0.395445488349651,0.397633333724236,0.004897041329674756,36.2920756678158,0.11401447123003,0.875757575757576,16,8,24,400,0.0025,0.001,0.29,0.4,0.005,0.005,10000000.0,1.0,0.4,330.0,10.0
53,340.0,0.0,0.306009250623902,0.403318892523752,0.00480691240486774,36.3416107623024,0.04849367435195795,0.873529411764706,16,8,24,400,0.0025,0.001,0.29,0.4,0.005,0.005,10000000.0,1.0,0.4,340.0,10.0
54,350.0,0.0,0.138949233394669,0.396912400630356,0.002783251744082244,36.5078602808344,0.09337706141771555,0.868571428571429,16,8,24,400,0.0025,0.001,0.29,0.4,0.005,0.005,10000000.0,1.0,0.4,350.0,10.0
55,360.0,0.0,-0.101580974151148,0.402186917505848,0.00521331805519634,36.0962723708632,0.06054463802818483,0.869444444444444,16,8,24,400,0.0025,0.001,0.29,0.4,0.005,0.005,10000000.0,1.0,0.4,360.0,10.0
56,370.0,0.0,0.03838260114207515,0.400482536782416,0.001261049251933874,35.5758191781335,0.0504836240138829,0.87027027027027,16,8,24,400,0.0025,0.001,0.29,0.4,0.005,0.005,10000000.0,1.0,0.4,370.0,10.0
57,380.0,1.0,-0.08138063825754216,0.403219456214742,0.00472373321845912,35.950292672682,0.06213859965342169,0.871052631578947,16,8,24,400,0.0025,0.001,0.29,0.4,0.005,0.005,10000000.0,1.0,0.4,380.0,10.0
58,390.0,1.0,1.6647469949894,0.395028598610756,0.004040617506068401,36.054688302723,0.05759378800713816,0.866666666666667,16,8,24,400,0.0025,0.001,0.29,0.4,0.005,0.005,10000000.0,1.0,0.4,390.0,10.0
59,400.0,1.0,-0.574353327287099,0.403814591452745,0.00494229326143793,35.8655894906493,0.08176931634912969,0.865,16,8,24,400,0.0025,0.001,0.29,0.4,0.005,0.005,10000000.0,1.0,0.4,400.0,10.0
60,410.0,1.0,0.02461235897135339,0.394795494101464,0.003490879959957287,35.6726067399796,0.04595049347978379,0.868292682926829,16,8,24,400,0.0025,0.001,0.29,0.4,0.005,0.005,10000000.0,1.0,0.4,410.0,10.0
61,420.0,1.0,0.103183872066438,0.400849888528672,0.002044222732952166,35.801580681964,0.05774609224694585,0.871428571428571,16,8,24,400,0.0025,0.001,0.29,0.4,0.005,0.005,10000000.0,1.0,0.4,420.0,10.0
62,430.0,1.0,-0.06173564498385531,0.398946051337137,0.004809172526388393,36.3101018588591,0.06233957557232523,0.874418604651163,16,8,24,400,0.0025,0.001,0.29,0.4,0.005,0.005,10000000.0,1.0,0.4,430.0,10.0
63,440.0,1.0,0.374441376501636,0.402332627200109,0.005266656991813307,35.8769134872264,0.04827866736556721,0.872727272727273,16,8,24,400,0.0025,0.001,0.29,0.4,0.005,0.005,10000000.0,1.0,0.4,440.0,10.0
64,450.0,1.0,0.256866978314065,0.39689840845124,0.002603089433370542,35.4858649633097,0.09610060384275666,0.873333333333333,16,8,24,400,0.0025,0.001,0.29,0.4,0.005,0.005,10000000.0,1.0,0.4,450.0,10.0
65,460.0,2.0,-0.159469036010705,0.397593476994635,0.002752868189549153,35.5703360729406,0.07177723370004167,0.876086956521739,16,8,24,400,0.0025,0.001,0.29,0.4,0.005,0.005,10000000.0,1.0,0.4,460.0,10.0
66,470.0,2.0,0.103724667660572,0.403545301366803,0.003353291608760749,35.745688457358,0.0578038801567724,0.874468085106383,16,8,24,400,0.0025,0.001,0.29,0.4,0.005,0.005,10000000.0,1.0,0.4,470.0,10.0
67,480.0,2.0,0.366207831324573,0.396608735673184,0.004617048808093822,35.8203415884402,0.05400641653100834,0.877083333333333,16,8,24,400,0.0025,0.001,0.29,0.4,0.005,0.005,10000000.0,1.0,0.4,480.0,10.0
68,490.0,2.0,0.194097572435567,0.395904328160781,0.004292994390446947,35.8166073115169,0.05591377187480161,0.875510204081633,16,8,24,400,0.0025,0.001,0.29,0.4,0.005,0.005,10000000.0,1.0,0.4,490.0,10.0
69,500.0,2.0,-0.06530753400875255,0.402679948763334,0.005064773954208272,35.1645737991693,0.06397821629438544,0.878,16,8,24,400,0.0025,0.001,0.29,0.4,0.005,0.005,10000000.0,1.0,0.4,500.0,10.0
70,510.0,2.0,0.04293577517091762,0.401297342106092,0.004180410470160901,35.1904359021837,0.0635260083495452,0.87843137254902,16,8,24,400,0.0025,0.001,0.29,0.4,0.005,0.005,10000000.0,1.0,0.4,510.0,10.0
71,520.0,2.0,-0.07032211372279562,0.39949074130658,0.004144060942443737,36.2282742211232,0.05780063948650783,0.873076923076923,16,8,24,400,0.0025,0.001,0.29,0.4,0.005,0.005,10000000.0,1.0,0.4,520.0,10.0
72,530.0,2.0,0.196762064460927,0.397787905600688,0.0046600461636936,36.3041389567742,0.07760094161380963,0.873584905660377,16,8,24,400,0.0025,0.001,0.29,0.4,0.005,0.005,10000000.0,1.0,0.4,530.0,10.0
73,540.0,2.0,0.06676212716411101,0.395745924917183,0.004929645276034043,36.0922717161407,0.04472394010006369,0.874074074074074,16,8,24,400,0.0025,0.001,0.29,0.4,0.005,0.005,10000000.0,1.0,0.4,540.0,10.0
74,550.0,2.0,0.05265807524483535,0.395965507114064,0.003547810825569622,36.0623011535662,0.0579863636854058,0.874545454545455,16,8,24,400,0.0025,0.001,0.29,0.4,0.005,0.005,10000000.0,1.0,0.4,550.0,10.0
75,560.0,2.0,-1.76356799404675,0.394194296152808,0.002708942972091918,36.2099078256793,0.06496869444848566,0.869642857142857,16,8,24,400,0.0025,0.001,0.29,0.4,0.005,0.005,10000000.0,1.0,0.4,560.0,10.0
76,570.0,2.0,0.06234977548228926,0.402865467867359,0.0007830746567091454,35.4357739028546,0.05922521497474009,0.871929824561404,16,8,24,400,0.0025,0.001,0.29,0.4,0.005,0.005,10000000.0,1.0,0.4,570.0,10.0
77,580.0,2.0,0.09706039901720942,0.405351807786575,0.003747470515490691,35.8630349547945,0.0463493397298604,0.874137931034483,16,8,24,400,0.0025,0.001,0.29,0.4,0.005,0.005,10000000.0,1.0,0.4,580.0,10.0
78,590.0,2.0,0.08291979393106885,0.405098664860023,0.004892230589253386,35.2863305556947,0.06816280403840941,0.871186440677966,16,8,24,400,0.0025,0.001,0.29,0.4,0.005,0.005,10000000.0,1.0,0.4,590.0,10.0
79,600.0,2.0,0.09508015197570785,0.399057609084071,0.004078844132156684,35.7905826316249,0.07984226269482322,0.873333333333333,16,8,24,400,0.0025,0.001,0.29,0.4,0.005,0.005,10000000.0,1.0,0.4,600.0,10.0
80,610.0,2.0,0.234551981455297,0.403642134087951,0.003799021944757039,35.4492575477687,0.09127162753933717,0.873770491803279,16,8,24,400,0.0025,0.001,0.29,0.4,0.005,0.005,10000000.0,1.0,0.4,610.0,10.0
81,620.0,2.0,0.621785403585818,0.395624752783591,0.004657022199925461,35.6886590485521,0.05575003164312382,0.874193548387097,16,8,24,400,0.0025,0.001,0.29,0.4,0.005,0.005,10000000.0,1.0,0.4,620.0,10.0
82,630.0,2.0,0.02985916236502817,0.396840540267604,0.003524261903010013,36.6247656641095,0.08464615840128446,0.873015873015873,16,8,24,400,0.0025,0.001,0.29,0.4,0.005,0.005,10000000.0,1.0,0.4,630.0,10.0
83,640.0,2.0,-0.135353912912251,0.404721656806489,0.002812588308849945,36.3553490382992,0.06148354779420998,0.8703125,16,8,24,400,0.0025,0.001,0.29,0.4,0.005,0.005,10000000.0,1.0,0.4,640.0,10.0
84,650.0,2.0,0.04528411820501788,0.398120317644688,0.004894918885248671,35.890541819032,0.08802784865668434,0.870769230769231,16,8,24,400,0.0025,0.001,0.29,0.4,0.005,0.005,10000000.0,1.0,0.4,650.0,10.0
85,660.0,2.0,-0.300165081498562,0.401384710307264,0.004396761229902285,35.7945235861596,0.06403739053441315,0.86969696969697,16,8,24,400,0.0025,0.001,0.29,0.4,0.005,0.005,10000000.0,1.0,0.4,660.0,10.0
86,670.0,2.0,0.47719763553323,0.40410628591925,0.002317211323567576,36.500912624639,0.04046206524523406,0.870149253731343,16,8,24,400,0.0025,0.001,0.29,0.4,0.005,0.005,10000000.0,1.0,0.4,670.0,10.0
87,680.0,2.0,0.148370793165668,0.397738396701299,0.002833692042554269,35.6696638326338,0.08882026105730594,0.870588235294118,16,8,24,400,0.0025,0.001,0.29,0.4,0.005,0.005,10000000.0,1.0,0.4,680.0,10.0
88,690.0,2.0,-0.03863699580688262,0.405095424697176,0.003989458790457855,36.0540853558225,0.06311805852932179,0.871014492753623,16,8,24,400,0.0025,0.001,0.29,0.4,0.005,0.005,10000000.0,1.0,0.4,690.0,10.0
89,700.0,2.0,-0.338894623444503,0.401921246212662,0.003048081904917708,35.8699780379488,0.113904289249248,0.872857142857143,16,8,24,400,0.0025,0.001,0.29,0.4,0.005,0.005,10000000.0,1.0,0.4,700.0,10.0
90,710.0,2.0,-0.237976245633035,0.404290680847262,0.003361986892096531,36.0416222480226,0.04687988170025212,0.871830985915493,16,8,24,400,0.0025,0.001,0.29,0.4,0.005,0.005,10000000.0,1.0,0.4,710.0,10.0
91,720.0,2.0,0.06639439551508985,0.404685018334758,0.003503569478968088,35.3756446351404,0.07467691850618939,0.872222222222222,16,8,24,400,0.0025,0.001,0.29,0.4,0.005,0.005,10000000.0,1.0,0.4,720.0,10.0
92,730.0,2.0,-0.233020465813752,0.405268684406237,0.004706696718788339,36.313380298289,0.0691212897671002,0.871232876712329,16,8,24,400,0.0025,0.001,0.29,0.4,0.005,0.005,10000000.0,1.0,0.4,730.0,10.0
93,740.0,2.0,-0.01435910758300452,0.396364165461965,0.00479334592318439,35.8999413863476,0.08104587626260044,0.868918918918919,16,8,24,400,0.0025,0.001,0.29,0.4,0.005,0.005,10000000.0,1.0,0.4,740.0,10.0
94,750.0,2.0,0.08356500394074828,0.403898454758306,0.003686980290838773,35.8216211226473,0.05609911643346112,0.870666666666667,16,8,24,400,0.0025,0.001,0.29,0.4,0.005,0.005,10000000.0,1.0,0.4,750.0,10.0
95,760.0,2.0,-0.0741035566352366,0.399903494422849,0.001311311407611222,35.2757401102658,0.06924640442095378,0.868421052631579,16,8,24,400,0.0025,0.001,0.29,0.4,0.005,0.005,10000000.0,1.0,0.4,760.0,10.0
96,770.0,2.0,-0.02806081888411427,0.405047578557667,0.004272335057726976,36.1484865957771,0.04707787334084179,0.868831168831169,16,8,24,400,0.0025,0.001,0.29,0.4,0.005,0.005,10000000.0,1.0,0.4,770.0,10.0
97,780.0,2.0,-0.588139916133514,0.3983817667123,0.003770277015253976,36.3207316372954,0.0658202803330107,0.870512820512821,16,8,24,400,0.0025,0.001,0.29,0.4,0.005,0.005,10000000.0,1.0,0.4,780.0,10.0
98,790.0,2.0,-0.280079494830716,0.405168472470375,0.004751634841612055,35.7404795270072,0.04230944771761987,0.870886075949367,16,8,24,400,0.0025,0.001,0.29,0.4,0.005,0.005,10000000.0,1.0,0.4,790.0,10.0
99,800.0,2.0,-0.07689300561833079,0.399881514124908,0.004361353158593129,35.7429802183333,0.0632708515573895,0.87125,16,8,24,400,0.0025,0.001,0.29,0.4,0.005,0.005,10000000.0,1.0,0.4,800.0,10.0
